#time(ns),px,py,pz,qw,qx,qy,qz,vx,vy,vz,bwx,bwy,bwz,bax,bay,baz
1755241472973454592,0.000151122,0.519601,-0.187746,0.29567,0.584451,0.180303,0.733817,-0.279956,0.396201,-0.187909,0.0115379,-0.0364444,0.0209322,-0.0695064,-0.120286,0.383922
1755241472983454464,-0.00254329,0.523803,-0.189833,0.302839,0.586818,0.169624,0.731547,-0.259306,0.443719,-0.228327,0.011536,-0.0364451,0.0209301,-0.0695065,-0.120286,0.383922
1755241472993454336,-0.00504706,0.528478,-0.192267,0.306362,0.590578,0.158434,0.72956,-0.241762,0.491575,-0.256794,0.0115321,-0.0364461,0.0209234,-0.0695071,-0.120287,0.383922
1755241473003454464,-0.00739079,0.533639,-0.194922,0.306399,0.595418,0.14498,0.728408,-0.227373,0.540173,-0.272942,0.0115265,-0.0364478,0.0209139,-0.0695086,-0.120289,0.383923
1755241473013454336,-0.00960793,0.539261,-0.197694,0.304047,0.600948,0.129622,0.727747,-0.216553,0.583003,-0.280297,0.0115202,-0.0364501,0.0209038,-0.0695113,-0.120293,0.383923
1755241473023454464,-0.0117404,0.545254,-0.200493,0.29947,0.607025,0.113562,0.727284,-0.210499,0.613639,-0.278486,0.0115135,-0.0364527,0.0208927,-0.0695155,-0.120298,0.383923
1755241473033454336,-0.0138322,0.551473,-0.203238,0.29341,0.613532,0.0986828,0.726464,-0.20826,0.628003,-0.269631,0.0115066,-0.0364553,0.0208791,-0.0695215,-0.120303,0.38392
1755241473043454464,-0.0159168,0.557754,-0.205865,0.285071,0.620843,0.0859563,0.72519,-0.208908,0.626172,-0.255137,0.0114991,-0.0364571,0.0208619,-0.0695295,-0.120311,0.383914
1755241473053454336,-0.0180166,0.563947,-0.208323,0.275399,0.628822,0.0750808,0.723257,-0.211268,0.610686,-0.235986,0.0114914,-0.0364583,0.0208412,-0.06954,-0.120319,0.383906
1755241473063454464,-0.0201529,0.56993,-0.210562,0.264744,0.637181,0.0659263,0.720809,-0.216206,0.584901,-0.211264,0.0114838,-0.0364588,0.0208178,-0.0695531,-0.120329,0.383894
1755241473073454336,-0.0223463,0.575635,-0.212534,0.253057,0.645865,0.0584219,0.717919,-0.222429,0.555924,-0.182662,0.0114762,-0.0364589,0.0207926,-0.0695694,-0.12034,0.383877
1755241473083454464,-0.0246003,0.581055,-0.214206,0.240766,0.654684,0.0520112,0.714644,-0.228232,0.527888,-0.151515,0.0114677,-0.0364589,0.0207665,-0.0695891,-0.120352,0.383856
1755241473093454336,-0.0269107,0.586194,-0.215554,0.228762,0.662926,0.0476409,0.711286,-0.233744,0.499574,-0.117714,0.0114573,-0.0364579,0.0207388,-0.0696126,-0.120365,0.38383
1755241473103454464,-0.0292763,0.591028,-0.216546,0.215568,0.671313,0.0466278,0.707598,-0.239129,0.466243,-0.080388,0.011445,-0.0364547,0.0207072,-0.06964,-0.120381,0.383797
1755241473113454336,-0.0316879,0.595477,-0.217146,0.201438,0.679663,0.048433,0.703659,-0.24255,0.421187,-0.0388438,0.0114307,-0.0364492,0.0206701,-0.0696716,-0.120399,0.383761
1755241473123454208,-0.0340986,0.599332,-0.217293,0.187007,0.687861,0.0522516,0.699389,-0.236712,0.34008,0.0115986,0.0114145,-0.0364419,0.0206281,-0.0697077,-0.120421,0.383721
1755241473133454336,-0.0362925,0.601856,-0.21682,0.17446,0.694959,0.0576151,0.695181,-0.199249,0.163149,0.0824673,0.0113976,-0.0364347,0.0205858,-0.0697485,-0.120447,0.383678
1755241473143454208,-0.0381162,0.603021,-0.215766,0.167436,0.699698,0.0616753,0.691797,-0.16731,0.081864,0.124862,0.011383,-0.036429,0.0205486,-0.0697937,-0.120477,0.383633
1755241473153454336,-0.0396904,0.603645,-0.214375,0.16701,0.702253,0.063312,0.689159,-0.149133,0.0449046,0.152199,0.0113722,-0.0364246,0.0205169,-0.0698428,-0.120511,0.383585
1755241473163454208,-0.0411504,0.603938,-0.212752,0.16772,0.704178,0.0657333,0.686791,-0.143991,0.0138942,0.171679,0.0113647,-0.0364209,0.0204886,-0.0698949,-0.120548,0.383535
1755241473173454336,-0.0425858,0.603922,-0.21096,0.167063,0.706203,0.0705357,0.684392,-0.143157,-0.0167176,0.186297,0.0113595,-0.0364176,0.0204626,-0.0699495,-0.120586,0.383483
1755241473183454208,-0.0440115,0.603635,-0.209036,0.16522,0.708409,0.0769181,0.681867,-0.141839,-0.0394506,0.198343,0.0113539,-0.0364149,0.0204383,-0.0700059,-0.120626,0.38343
1755241473193454336,-0.0454238,0.603171,-0.206988,0.161091,0.711452,0.0845021,0.678782,-0.140735,-0.0522556,0.21116,0.0113458,-0.0364137,0.0204161,-0.0700635,-0.120668,0.383375
1755241473203454208,-0.0468353,0.602615,-0.204828,0.153748,0.715326,0.0932866,0.675254,-0.141757,-0.0581151,0.220216,0.011335,-0.0364154,0.0203971,-0.0701221,-0.120711,0.383318
1755241473213454336,-0.0482649,0.602026,-0.202609,0.143322,0.720014,0.102395,0.671234,-0.144206,-0.0593829,0.222717,0.0113219,-0.0364201,0.0203815,-0.0701815,-0.120755,0.383259
1755241473223454208,-0.0497223,0.601436,-0.200395,0.131433,0.725375,0.111434,0.666437,-0.147198,-0.0587587,0.219505,0.0113065,-0.036427,0.0203677,-0.0702421,-0.120801,0.383198
1755241473233454336,-0.0512049,0.600839,-0.198231,0.119231,0.730721,0.120426,0.661308,-0.148802,-0.0610988,0.21313,0.0112896,-0.0364345,0.0203531,-0.0703041,-0.120849,0.383134
1755241473243454208,-0.0526769,0.600191,-0.196131,0.108355,0.735714,0.12848,0.656107,-0.14463,-0.0696992,0.207463,0.0112717,-0.0364406,0.0203345,-0.0703675,-0.120898,0.383067
1755241473253454336,-0.0540713,0.599405,-0.194055,0.100328,0.740238,0.134572,0.651054,-0.133381,-0.0889581,0.208789,0.0112537,-0.0364445,0.0203103,-0.0704328,-0.120949,0.382998
1755241473263454208,-0.0553262,0.598357,-0.191917,0.0946696,0.744045,0.140307,0.646335,-0.116996,-0.122335,0.219843,0.0112355,-0.0364466,0.0202808,-0.0705002,-0.121002,0.382929
1755241473273454080,-0.056401,0.596923,-0.18963,0.0888715,0.747191,0.14839,0.641707,-0.0975945,-0.164951,0.23809,0.0112174,-0.0364479,0.0202482,-0.0705697,-0.121057,0.382861
1755241473283454208,-0.0572766,0.595059,-0.187148,0.0819464,0.750164,0.157797,0.636898,-0.0774522,-0.207057,0.258221,0.0111991,-0.03645,0.0202163,-0.0706415,-0.121114,0.382793
1755241473293454080,-0.0579566,0.592827,-0.184484,0.0754621,0.752628,0.167631,0.632263,-0.0587961,-0.237319,0.273616,0.0111807,-0.0364538,0.0201883,-0.0707157,-0.121173,0.382725
1755241473303454208,-0.0584683,0.590387,-0.181717,0.0720184,0.754391,0.176918,0.628019,-0.0439795,-0.248713,0.278456,0.0111625,-0.0364594,0.0201652,-0.0707918,-0.121233,0.382659
1755241473313454080,-0.0588488,0.587875,-0.178948,0.0708102,0.755802,0.185385,0.624004,-0.0323764,-0.253215,0.274637,0.0111448,-0.0364663,0.0201463,-0.0708696,-0.121295,0.382592
1755241473323454208,-0.0591208,0.585335,-0.176234,0.0697628,0.75709,0.193944,0.619946,-0.0220663,-0.254389,0.267818,0.0111277,-0.036474,0.0201304,-0.0709486,-0.121358,0.382524
1755241473333454080,-0.0592902,0.582803,-0.173601,0.067461,0.758244,0.20347,0.615724,-0.011721,-0.251222,0.25863,0.0111105,-0.036482,0.0201164,-0.0710284,-0.121423,0.382454
1755241473343454208,-0.0593531,0.580333,-0.171071,0.0628245,0.759164,0.215182,0.611081,-0.000758008,-0.241839,0.246908,0.0110919,-0.0364897,0.0201024,-0.0711088,-0.121491,0.382383
1755241473353454080,-0.0593056,0.578003,-0.168672,0.0562107,0.759802,0.227771,0.606351,0.0102149,-0.222782,0.2328,0.0110713,-0.0364969,0.0200874,-0.0711895,-0.12156,0.382311
1755241473363454208,-0.0591536,0.575914,-0.166405,0.0485421,0.759989,0.240837,0.601712,0.0199378,-0.193817,0.221034,0.011049,-0.0365035,0.0200712,-0.0712702,-0.121632,0.382239
1755241473373454080,-0.0589205,0.574164,-0.164247,0.0406813,0.759702,0.254015,0.597222,0.026087,-0.155061,0.21053,0.0110254,-0.0365097,0.0200537,-0.0713506,-0.121707,0.382166
1755241473383454208,-0.0586543,0.572846,-0.1622,0.0333337,0.759155,0.266551,0.592894,0.0263214,-0.107563,0.19844,0.0110016,-0.0365164,0.0200352,-0.0714305,-0.121785,0.382095
1755241473393454080,-0.0584215,0.572033,-0.160291,0.0266314,0.758712,0.276723,0.589128,0.0192103,-0.0546486,0.182967,0.0109787,-0.0365244,0.0200158,-0.0715097,-0.121866,0.382025
1755241473403453952,-0.0583035,0.571757,-0.158546,0.0214463,0.758691,0.282649,0.586547,0.00356146,-0.000746682,0.165944,0.0109573,-0.0365338,0.0199969,-0.0715881,-0.12195,0.381957
1755241473413454080,-0.0583636,0.571996,-0.156978,0.0166087,0.759149,0.285798,0.584582,-0.0159132,0.0474671,0.147316,0.0109374,-0.0365445,0.0199794,-0.0716656,-0.122037,0.38189
1755241473423453952,-0.058632,0.572676,-0.155619,0.0112693,0.759898,0.287972,0.582666,-0.0379842,0.0876818,0.124186,0.0109188,-0.0365559,0.0199634,-0.0717423,-0.122126,0.381826
1755241473433454080,-0.0591254,0.573729,-0.154498,0.00538546,0.760774,0.289974,0.58061,-0.0606221,0.122329,0.100021,0.0109009,-0.0365676,0.0199478,-0.0718179,-0.122217,0.381764
1755241473443453952,-0.0598402,0.575107,-0.153613,0.00157268,-0.762032,-0.291545,-0.578193,-0.0821052,0.15278,0.0772483,0.0108835,-0.0365791,0.0199318,-0.0718926,-0.12231,0.381704
1755241473453454080,-0.0607597,0.576772,-0.152936,0.010574,-0.763737,-0.292806,-0.575203,-0.101491,0.17996,0.0589277,0.0108664,-0.0365902,0.0199153,-0.0719665,-0.122405,0.381646
1755241473463453952,-0.0618614,0.578699,-0.15241,0.022015,-0.765648,-0.294267,-0.571581,-0.118559,0.204888,0.0471352,0.0108496,-0.0366005,0.0198991,-0.0720398,-0.122501,0.381592
1755241473473454080,-0.0631262,0.58085,-0.151968,0.0351991,-0.76754,-0.296016,-0.567466,-0.134111,0.224575,0.0421052,0.0108327,-0.0366102,0.0198833,-0.0721125,-0.122598,0.381539
1755241473483453952,-0.0645343,0.583171,-0.151553,0.048638,-0.769309,-0.297772,-0.563143,-0.147237,0.238877,0.0411242,0.0108152,-0.0366193,0.0198674,-0.0721847,-0.122696,0.38149
1755241473493454080,-0.0660704,0.585617,-0.15114,0.060104,-0.771081,-0.298616,-0.559151,-0.159955,0.250035,0.0414944,0.0107967,-0.0366285,0.0198511,-0.0722567,-0.122795,0.381444
1755241473503453952,-0.0677358,0.588159,-0.150722,0.0675577,-0.772851,-0.297979,-0.556189,-0.173141,0.257734,0.0421829,0.010777,-0.0366383,0.0198341,-0.0723286,-0.122896,0.381401
1755241473513454080,-0.069535,0.59075,-0.150296,0.0712911,-0.774729,-0.296202,-0.554055,-0.186678,0.259555,0.0430207,0.0107561,-0.0366487,0.0198162,-0.0724005,-0.122997,0.38136
1755241473523453952,-0.0714687,0.593327,-0.14986,0.0732453,-0.776796,-0.293684,-0.552243,-0.199835,0.255098,0.0441575,0.0107343,-0.0366598,0.0197973,-0.0724724,-0.1231,0.381323
1755241473533453824,-0.0735193,0.595825,-0.149416,0.075041,-0.778892,-0.29111,-0.55041,-0.209833,0.243508,0.0443658,0.0107124,-0.0366711,0.0197775,-0.0725443,-0.123204,0.381289
1755241473543453952,-0.0756535,0.59817,-0.148989,0.077124,-0.780955,-0.288874,-0.548374,-0.216578,0.224831,0.0405222,0.0106908,-0.0366824,0.0197572,-0.072616,-0.12331,0.381257
1755241473553453824,-0.0778381,0.600307,-0.148618,0.0794968,-0.782765,-0.287675,-0.546079,-0.219934,0.202243,0.0332341,0.0106695,-0.0366935,0.0197363,-0.0726874,-0.123417,0.381228
1755241473563453952,-0.0800431,0.602216,-0.148339,0.0819803,-0.784223,-0.287707,-0.543598,-0.220808,0.179974,0.0223222,0.0106485,-0.0367041,0.0197147,-0.0727582,-0.123527,0.381201
1755241473573453824,-0.0822489,0.60392,-0.148182,0.0844071,-0.785478,-0.288151,-0.541174,-0.220196,0.161246,0.00865639,0.0106276,-0.0367145,0.019693,-0.0728281,-0.123638,0.381175
1755241473583453952,-0.0844439,0.605457,-0.148172,0.0868895,-0.78664,-0.288622,-0.538837,-0.218709,0.146801,-0.00668256,0.0106069,-0.0367249,0.0196716,-0.0728967,-0.123752,0.381151
1755241473593453824,-0.0866216,0.606875,-0.148319,0.0894385,-0.787606,-0.289165,-0.536714,-0.216899,0.137362,-0.0229303,0.0105866,-0.0367356,0.0196512,-0.0729639,-0.123868,0.381127
1755241473603453952,-0.0887888,0.608221,-0.148631,0.0919762,-0.788034,-0.289572,-0.535436,-0.216731,0.132133,-0.0393639,0.0105669,-0.0367464,0.0196319,-0.0730297,-0.123987,0.381104
1755241473613453824,-0.0909611,0.60952,-0.149103,0.0947688,-0.788072,-0.289795,-0.534771,-0.217842,0.127558,-0.0546239,0.010548,-0.036757,0.0196136,-0.0730938,-0.124109,0.38108
1755241473623453952,-0.0931488,0.610765,-0.149712,0.0980198,-0.787875,-0.289957,-0.534388,-0.21982,0.121199,-0.0667636,0.01053,-0.0367671,0.0195962,-0.0731563,-0.124232,0.381056
1755241473633453824,-0.0953617,0.611938,-0.150421,0.101849,-0.787579,-0.290124,-0.534018,-0.222898,0.112878,-0.0745024,0.0105127,-0.0367772,0.019579,-0.073217,-0.124359,0.381031
1755241473643453952,-0.0976116,0.613007,-0.151186,0.106153,-0.787304,-0.290483,-0.533389,-0.227253,0.100349,-0.0781449,0.0104961,-0.036788,0.0195612,-0.073276,-0.124488,0.381006
1755241473653453824,-0.0999132,0.61392,-0.151971,0.111888,-0.7869,-0.291124,-0.532462,-0.233182,0.08153,-0.0784047,0.0104802,-0.0367999,0.0195425,-0.0733337,-0.124619,0.38098
1755241473663453696,-0.102279,0.614622,-0.152749,0.118999,-0.786421,-0.292194,-0.53104,-0.239996,0.058282,-0.0770321,0.0104649,-0.0368126,0.019523,-0.0733904,-0.124752,0.380954
1755241473673453824,-0.104717,0.61508,-0.153507,0.12712,-0.785858,-0.29368,-0.52917,-0.24763,0.0331725,-0.074529,0.0104501,-0.036826,0.019503,-0.0734462,-0.124888,0.380927
1755241473683453696,-0.107233,0.615283,-0.154235,0.136011,-0.785205,-0.295539,-0.526887,-0.255438,0.00745309,-0.0708767,0.0104352,-0.0368396,0.0194825,-0.0735014,-0.125025,0.380901
1755241473693453824,-0.109822,0.615234,-0.15492,0.145407,-0.784599,-0.297593,-0.524118,-0.262252,-0.0171842,-0.0660201,0.0104194,-0.036853,0.0194611,-0.0735562,-0.125163,0.380875
1755241473703453696,-0.112469,0.614946,-0.155551,0.154545,-0.784237,-0.299442,-0.520982,-0.266674,-0.0403171,-0.0601456,0.0104028,-0.0368661,0.0194389,-0.0736107,-0.125303,0.38085
1755241473713453824,-0.115141,0.614426,-0.156123,0.163723,-0.783951,-0.301492,-0.517415,-0.267142,-0.063773,-0.0543855,0.0103852,-0.036879,0.019416,-0.073665,-0.125444,0.380826
1755241473723453696,-0.117802,0.613678,-0.156638,0.17332,-0.783538,-0.303971,-0.51345,-0.264811,-0.0853323,-0.0485071,0.0103669,-0.0368917,0.0193927,-0.073719,-0.125587,0.380804
1755241473733453824,-0.120432,0.612737,-0.157089,0.18295,-0.783023,-0.306525,-0.509359,-0.260804,-0.102402,-0.0415621,0.0103477,-0.0369042,0.0193692,-0.0737727,-0.12573,0.380783
1755241473743453696,-0.123014,0.611645,-0.157469,0.192032,-0.78249,-0.308814,-0.505437,-0.255487,-0.115824,-0.0344489,0.010328,-0.0369163,0.0193459,-0.0738262,-0.125874,0.380764
1755241473753453824,-0.125534,0.610426,-0.157779,0.200146,-0.782053,-0.310739,-0.501773,-0.248,-0.127891,-0.0277058,0.0103079,-0.0369279,0.0193228,-0.0738792,-0.126019,0.380747
1755241473763453696,-0.127967,0.609089,-0.158029,0.207708,-0.781556,-0.312652,-0.498274,-0.238495,-0.139222,-0.0224599,0.0102873,-0.0369392,0.0193001,-0.0739316,-0.126165,0.380732
1755241473773453824,-0.130302,0.607658,-0.158238,0.214702,-0.781071,-0.3144,-0.494958,-0.228287,-0.146512,-0.0197878,0.0102663,-0.03695,0.0192775,-0.0739832,-0.126311,0.380719
1755241473783453696,-0.132527,0.606168,-0.158429,0.221147,-0.780641,-0.315865,-0.491857,-0.216548,-0.151355,-0.0184623,0.0102453,-0.0369604,0.0192551,-0.0740339,-0.126458,0.380707
1755241473793453568,-0.134625,0.604638,-0.158605,0.227351,-0.780135,-0.317272,-0.488916,-0.202795,-0.154307,-0.0164037,0.0102244,-0.0369706,0.0192329,-0.0740834,-0.126606,0.380697
1755241473803453696,-0.136577,0.60309,-0.158748,0.233655,-0.779493,-0.318596,-0.4861,-0.187319,-0.155026,-0.0118264,0.0102037,-0.0369806,0.0192109,-0.0741318,-0.126755,0.380689
1755241473813453568,-0.138369,0.601546,-0.158828,0.240025,-0.778625,-0.319589,-0.48373,-0.17093,-0.15365,-0.00386051,0.010183,-0.0369907,0.0191888,-0.074179,-0.126904,0.380682
1755241473823453696,-0.139995,0.600017,-0.158814,0.245988,-0.77776,-0.320179,-0.48173,-0.154263,-0.152345,0.00693013,0.0101624,-0.0370009,0.0191666,-0.0742252,-0.127055,0.380677
1755241473833453568,-0.141453,0.59849,-0.158688,0.251565,-0.776918,-0.320567,-0.479948,-0.137267,-0.153727,0.0182002,0.0101421,-0.0370117,0.0191443,-0.0742703,-0.127207,0.380673
1755241473843453696,-0.142737,0.596926,-0.158454,0.256865,-0.775956,-0.321009,-0.4784,-0.119392,-0.159577,0.0283341,0.0101224,-0.0370233,0.0191215,-0.0743146,-0.127359,0.380672
1755241473853453568,-0.143839,0.595283,-0.158128,0.261835,-0.774894,-0.321765,-0.476916,-0.101046,-0.169562,0.0366645,0.0101035,-0.0370356,0.0190983,-0.0743582,-0.127513,0.380671
1755241473863453696,-0.144758,0.593523,-0.157731,0.266551,-0.773557,-0.323258,-0.475461,-0.0828888,-0.182666,0.0423795,0.0100853,-0.0370487,0.0190743,-0.0744011,-0.127667,0.380672
1755241473873453568,-0.145504,0.59163,-0.157292,0.271243,-0.772063,-0.325303,-0.47384,-0.0664255,-0.195764,0.0450275,0.0100675,-0.0370624,0.0190499,-0.0744435,-0.127823,0.380675
1755241473883453696,-0.146097,0.589621,-0.156842,0.275929,-0.770485,-0.327515,-0.472177,-0.0524076,-0.205437,0.044418,0.0100501,-0.0370761,0.0190256,-0.0744857,-0.12798,0.380679
1755241473893453568,-0.146558,0.587546,-0.156418,0.280572,-0.76883,-0.329737,-0.470588,-0.0400548,-0.208733,0.0401834,0.0100328,-0.0370891,0.019002,-0.0745277,-0.128137,0.380685
1755241473903453696,-0.146907,0.585472,-0.156044,0.285151,-0.767223,-0.332095,-0.468797,-0.0299144,-0.205303,0.0347292,0.0100156,-0.0371012,0.0189793,-0.0745694,-0.128296,0.380692
1755241473913453568,-0.147155,0.583461,-0.155714,0.289859,-0.765559,-0.334475,-0.466934,-0.0195501,-0.196208,0.0314727,0.00999846,-0.0371125,0.0189577,-0.0746111,-0.128455,0.3807
1755241473923453696,-0.147295,0.581565,-0.155404,0.294592,-0.763865,-0.336742,-0.465114,-0.00835966,-0.182592,0.0308377,0.00998132,-0.037123,0.0189371,-0.0746528,-0.128616,0.38071
1755241473933453568,-0.147321,0.579818,-0.155095,0.299406,-0.762089,-0.33899,-0.463316,0.00299634,-0.166448,0.0310685,0.00996379,-0.0371331,0.0189173,-0.0746947,-0.128778,0.380721
1755241473943453440,-0.147239,0.578244,-0.154781,0.30457,-0.760024,-0.341371,-0.461592,0.0133452,-0.148256,0.0315714,0.00994496,-0.0371435,0.0188977,-0.0747369,-0.128941,0.380733
1755241473953453568,-0.147064,0.57686,-0.154464,0.310375,-0.757601,-0.343472,-0.460147,0.021304,-0.128413,0.031838,0.00992406,-0.0371541,0.018878,-0.0747797,-0.129106,0.380746
1755241473963453440,-0.146814,0.575674,-0.154145,0.316362,-0.755131,-0.344946,-0.459026,0.0286788,-0.108944,0.0322038,0.00990087,-0.0371647,0.0188578,-0.0748232,-0.129271,0.380761
1755241473973453568,-0.146492,0.57468,-0.153814,0.321614,-0.752854,-0.345828,-0.458453,0.0355813,-0.0897593,0.0342597,0.0098755,-0.0371753,0.0188374,-0.0748675,-0.129438,0.380778
1755241473983453440,-0.14611,0.573883,-0.153449,0.325347,-0.750995,-0.346169,-0.458609,0.0404838,-0.0695921,0.0389192,0.00984882,-0.0371859,0.018817,-0.0749124,-0.129605,0.380798
1755241473993453568,-0.145695,0.573291,-0.153029,0.327801,-0.749686,-0.345695,-0.459361,0.0422512,-0.0489333,0.0452772,0.00982229,-0.0371966,0.0187968,-0.074958,-0.129773,0.38082
1755241474003453440,-0.145277,0.572903,-0.152543,0.328676,-0.749309,-0.343796,-0.460774,0.0410918,-0.0289195,0.0516101,0.00979677,-0.0372074,0.018777,-0.0750042,-0.129941,0.380845
1755241474013453568,-0.144881,0.572701,-0.152011,0.328576,-0.749724,-0.340766,-0.462418,0.0380389,-0.0118366,0.0541266,0.00977203,-0.0372184,0.0187576,-0.0750506,-0.130109,0.380873
1755241474023453440,-0.144505,0.572646,-0.15149,0.32807,-0.75053,-0.33724,-0.464052,0.0375537,0.000265365,0.0494237,0.00974769,-0.0372296,0.0187381,-0.075097,-0.130276,0.380903
1755241474033453568,-0.144113,0.572701,-0.151032,0.32682,-0.751685,-0.333282,-0.46592,0.0415742,0.0104334,0.0420243,0.0097236,-0.0372409,0.0187181,-0.0751429,-0.130442,0.380936
1755241474043453440,-0.14365,0.572848,-0.150649,0.32446,-0.753165,-0.328916,-0.468275,0.0519288,0.0187544,0.034735,0.0096998,-0.037252,0.018697,-0.0751881,-0.130607,0.380972
1755241474053453568,-0.143053,0.573072,-0.150332,0.320628,-0.755223,-0.324026,-0.471002,0.0679603,0.025886,0.028814,0.00967611,-0.037263,0.0186747,-0.0752324,-0.130771,0.381009
1755241474063453440,-0.142273,0.573359,-0.150065,0.315189,-0.757548,-0.318674,-0.474577,0.0884643,0.0314449,0.0249534,0.00965219,-0.0372739,0.0186512,-0.0752756,-0.130932,0.38105
1755241474073453312,-0.141276,0.573693,-0.149826,0.308723,-0.759942,-0.313093,-0.478697,0.111079,0.0351398,0.0227246,0.00962787,-0.037285,0.0186264,-0.075318,-0.131092,0.381092
1755241474083453440,-0.140055,0.574057,-0.14962,0.300973,-0.762558,-0.307007,-0.483391,0.133133,0.0373747,0.0182152,0.00960333,-0.037296,0.018601,-0.0753595,-0.131249,0.381137
